#Parameters = {ct=0.035; endl=1.5; gt=1; p=15; phi=0; pl=10; pw=1; s=1.57; st=1.57; th=0.5; theta=0; vt=5}
#"Frequency / GHz"	"SZmax(1),Zmax(1) (1) [Magnitude]"
#----------------------------------------------------
2.0000000000000	-0.013767263629036
2.1000000000000	-0.016020772126310
2.2000000000000	-0.018605733267312
2.3000000000000	-0.021554126598076
2.4000000000000	-0.024901318615021
2.5000000000000	-0.028686371333124
2.6000000000000	-0.032952357991030
2.7000000000000	-0.037746677129051
2.8000000000000	-0.043121352336878
2.9000000000000	-0.049133299808566
3.0000000000000	-0.055844539187776
3.1000000000000	-0.063322314740342
3.2000000000000	-0.071639083374370
3.3000000000000	-0.080872313225447
3.4000000000000	-0.091104021378906
3.5000000000000	-0.10241996205604
3.6000000000000	-0.11490835799286
3.7000000000000	-0.12865804933046
3.8000000000000	-0.14375591881796
3.9000000000000	-0.16028344380044
4.0000000000000	-0.17831223063552
4.1000000000000	-0.19789841444281
4.2000000000000	-0.21907586714506
4.3000000000000	-0.24184826145192
4.4000000000000	-0.26618019844316
4.5000000000000	-0.29198782711558
4.6000000000000	-0.31912965966423
4.7000000000000	-0.34739859151975
4.8000000000000	-0.37651641979039
4.9000000000000	-0.40613233943559
5.0000000000000	-0.43582688458936
5.1000000000000	-0.46512247596190
5.2000000000000	-0.49350107564394
5.3000000000000	-0.52042846141683
5.4000000000000	-0.54538345142843
5.5000000000000	-0.56788928551513
5.6000000000000	-0.58754360708135
5.7000000000000	-0.60404335286797
5.8000000000000	-0.61720146112648
5.9000000000000	-0.62695355178092
6.0000000000000	-0.63335431971784
6.1000000000000	-0.63656492339204
6.2000000000000	-0.63683379527473
6.3000000000000	-0.63447384871388
6.4000000000000	-0.62983899738945
6.5000000000000	-0.62330238224974
6.6000000000000	-0.61523793452985
6.7000000000000	-0.60600610365564
6.8000000000000	-0.59594389764424
6.9000000000000	-0.58535889694328
7.0000000000000	-0.57452662096193
7.1000000000000	-0.56369051842183
7.2000000000000	-0.55306386876930
7.3000000000000	-0.54283297255489
7.4000000000000	-0.53316113345152
7.5000000000000	-0.52419306537020
7.6000000000000	-0.51605947839549
7.7000000000000	-0.50888169937077
7.8000000000000	-0.50277626526013
7.9000000000000	-0.49785949172419
8.0000000000000	-0.49425206914160
8.1000000000000	-0.49208377752423
8.2000000000000	-0.49149844410622
8.3000000000000	-0.49265929588523
8.4000000000000	-0.49575488617324
8.5000000000000	-0.50100580011768
8.6000000000000	-0.50867236817230
8.7000000000000	-0.51906363470053
8.8000000000000	-0.53254783250855
8.9000000000000	-0.54956458614069
9.0000000000000	-0.57063897629683
9.1000000000000	-0.59639739037800
9.2000000000000	-0.62758466687385
9.3000000000000	-0.66508125895193
9.4000000000000	-0.70991774488081
9.5000000000000	-0.76328161426128
9.6000000000000	-0.82650730896304
9.7000000000000	-0.90103431659426
9.8000000000000	-0.98830913625248
9.9000000000000	-1.0895954649022
10.000000000000	-1.2056459742681
10.100000000000	-1.3361877248786
10.200000000000	-1.4792017594791
10.300000000000	-1.6300685280402
10.400000000000	-1.7808342152332
10.500000000000	-1.9200994888604
10.600000000000	-2.0341623709854
10.700000000000	-2.1097271881260
10.800000000000	-2.1375493582750
10.900000000000	-2.1153545637283
11.000000000000	-2.0483707359308
11.100000000000	-1.9472189506587
11.200000000000	-1.8245131627315
11.300000000000	-1.6918932366126
11.400000000000	-1.5583963565175
11.500000000000	-1.4301010981226
11.600000000000	-1.3105285786676
11.700000000000	-1.2013100181707
11.800000000000	-1.1028294756492
11.900000000000	-1.0147271993889
12.000000000000	-0.93624991408283
12.100000000000	-0.86647517292644
12.200000000000	-0.80444518295406
12.300000000000	-0.74924065996436
12.400000000000	-0.70001721740855
12.500000000000	-0.65601950049080
12.600000000000	-0.61658279536095
12.700000000000	-0.58112808683901
12.800000000000	-0.54915410164408
12.900000000000	-0.52022835165388
13.000000000000	-0.49397826748716
13.100000000000	-0.47008296616610
13.200000000000	-0.44826588255956
13.300000000000	-0.42828832044315
13.400000000000	-0.40994388806647
13.500000000000	-0.39305374017864
13.600000000000	-0.37746253254114
13.700000000000	-0.36303499362921
13.800000000000	-0.34965302424271
13.900000000000	-0.33721324498962
14.000000000000	-0.32562492178267
14.100000000000	-0.31480820940703
14.200000000000	-0.30469266229537
14.300000000000	-0.29521596966429
14.400000000000	-0.28632287908741
14.500000000000	-0.27796427846828
14.600000000000	-0.27009641133679
14.700000000000	-0.26268020454444
14.800000000000	-0.25568069089530
14.900000000000	-0.24906651212680
15.000000000000	-0.24280949004445
15.100000000000	-0.23688425559816
15.200000000000	-0.23126792733431
15.300000000000	-0.22593983202616
15.400000000000	-0.22088126142295
15.500000000000	-0.21607526000606
15.600000000000	-0.21150643943114
15.700000000000	-0.20716081599617
15.800000000000	-0.20302566802884
15.900000000000	-0.19908941055064
16.000000000000	-0.19534148496559
16.100000000000	-0.19177226184978
16.200000000000	-0.18837295519523
16.300000000000	-0.18513554669515
16.400000000000	-0.18205271885511
16.500000000000	-0.17911779588068
16.600000000000	-0.17632469143197
16.700000000000	-0.17366786245093
16.800000000000	-0.17114226836113
16.900000000000	-0.16874333501647
17.000000000000	-0.16646692282585
17.100000000000	-0.16430929851780
17.200000000000	-0.16226711001565
17.300000000000	-0.16033736387431
17.400000000000	-0.15851740467197
17.500000000000	-0.15680489564077
17.600000000000	-0.15519779964187
17.700000000000	-0.15369435930848
17.800000000000	-0.15229307475406
17.900000000000	-0.15099267659672
18.000000000000	-0.14979209107824
18.100000000000	-0.14869039258654
18.200000000000	-0.14768673665297
18.300000000000	-0.14678026306091
18.400000000000	-0.14596995336253
18.500000000000	-0.14525441869491
18.600000000000	-0.14463158034745
18.700000000000	-0.14409818367253
18.800000000000	-0.14364904969349
18.900000000000	-0.14327590738176
19.000000000000	-0.14296554308723
19.100000000000	-0.14269681382276
19.200000000000	-0.14243572247117
19.300000000000	-0.14212709017625
19.400000000000	-0.14168005078808
19.500000000000	-0.14094188244359
19.600000000000	-0.13964878804226
19.700000000000	-0.13732856614546
19.800000000000	-0.13309607912589
19.900000000000	-0.12518996044697
20.000000000000	-0.10981942977240
#Parameters = {ct=0.035; endl=1.5; gt=1; p=15; phi=0; pl=1; pw=1; s=1.57; st=1.57; th=0.5; theta=0; vt=5}
#"Frequency / GHz"	"SZmax(1),Zmax(1) (2) [Magnitude]"
#----------------------------------------------------
2.0000000000000	-0.0086747482528335
2.1000000000000	-0.0075584390171620
2.2000000000000	-0.0069896340088013
2.3000000000000	-0.0069491644145768
2.4000000000000	-0.0074191865811651
2.5000000000000	-0.0083832050825560
2.6000000000000	-0.0098260888217670
2.7000000000000	-0.011734079499635
2.8000000000000	-0.014094791649894
2.9000000000000	-0.016897203293627
3.0000000000000	-0.020131636110115
3.1000000000000	-0.023789723857889
3.2000000000000	-0.027864367614170
3.3000000000000	-0.032349676238116
3.4000000000000	-0.037240890311902
3.5000000000000	-0.042534287683991
3.6000000000000	-0.048227068643420
3.7000000000000	-0.054317218709017
3.8000000000000	-0.060803347041928
3.9000000000000	-0.067684498605674
4.0000000000000	-0.074959938430686
4.1000000000000	-0.082628906716696
4.2000000000000	-0.090690344054715
4.3000000000000	-0.099142586798947
4.4000000000000	-0.10798303359147
4.5000000000000	-0.11720778525763
4.6000000000000	-0.12681126175495
4.7000000000000	-0.13678580156518
4.8000000000000	-0.14712125083941
4.9000000000000	-0.15780455168503
5.0000000000000	-0.16881934113584
5.1000000000000	-0.18014557445337
5.2000000000000	-0.19175918831490
5.3000000000000	-0.20363182096813
5.4000000000000	-0.21573060736601
5.5000000000000	-0.22801806742360
5.6000000000000	-0.24045210465712
5.7000000000000	-0.25298613040729
5.8000000000000	-0.26556932551130
5.9000000000000	-0.27814704666212
6.0000000000000	-0.29066137888675
6.1000000000000	-0.30305182882703
6.2000000000000	-0.31525614618752
6.3000000000000	-0.32721125331132
6.4000000000000	-0.33885425592092
6.5000000000000	-0.35012350220837
6.6000000000000	-0.36095965322926
6.7000000000000	-0.37130672539659
6.8000000000000	-0.38111306606368
6.9000000000000	-0.39033222580455
7.0000000000000	-0.39892369589115
7.1000000000000	-0.40685348626258
7.2000000000000	-0.41409452743997
7.3000000000000	-0.42062688870737
7.4000000000000	-0.42643781376417
7.5000000000000	-0.43152158330571
7.6000000000000	-0.43587922106075
7.7000000000000	-0.43951806531326
7.8000000000000	-0.44245123164479
7.9000000000000	-0.44469699451168
8.0000000000000	-0.44627811543265
8.1000000000000	-0.44722114424315
8.2000000000000	-0.44755571738585
8.3000000000000	-0.44731387390068
8.4000000000000	-0.44652940599921
8.5000000000000	-0.44523725716836
8.6000000000000	-0.44347297690956
8.7000000000000	-0.44127223767855
8.8000000000000	-0.43867041648269
8.9000000000000	-0.43570224099207
9.0000000000000	-0.43240149795263
9.1000000000000	-0.42880080014002
9.2000000000000	-0.42493140701975
9.3000000000000	-0.42082309362283
9.4000000000000	-0.41650406183823
9.5000000000000	-0.41200088829474
9.6000000000000	-0.40733850318740
9.7000000000000	-0.40254019473965
9.8000000000000	-0.39762763442729
9.9000000000000	-0.39262091858440
10.000000000000	-0.38753862252811
10.100000000000	-0.38239786385524
10.200000000000	-0.37721437205809
10.300000000000	-0.37200256206947
10.400000000000	-0.36677560976763
10.500000000000	-0.36154552784918
10.600000000000	-0.35632324080835
10.700000000000	-0.35111865804812
10.800000000000	-0.34594074439260
10.900000000000	-0.34079758747567
11.000000000000	-0.33569646165122
11.100000000000	-0.33064388820999
11.200000000000	-0.32564569179992
11.300000000000	-0.32070705303617
11.400000000000	-0.31583255735585
11.500000000000	-0.31102624022504
11.600000000000	-0.30629162884417
11.700000000000	-0.30163178052483
11.800000000000	-0.29704931792922
11.900000000000	-0.29254646137372
12.000000000000	-0.28812505840271
12.100000000000	-0.28378661083898
12.200000000000	-0.27953229951342
12.300000000000	-0.27536300687096
12.400000000000	-0.27127933764164
12.500000000000	-0.26728163775679
12.600000000000	-0.26337001168026
12.700000000000	-0.25954433831440
12.800000000000	-0.25580428562992
12.900000000000	-0.25214932415829
13.000000000000	-0.24857873947557
13.100000000000	-0.24509164379608
13.200000000000	-0.24168698678559
13.300000000000	-0.23836356569443
13.400000000000	-0.23512003490275
13.500000000000	-0.23195491496239
13.600000000000	-0.22886660121238
13.700000000000	-0.22585337203863
13.800000000000	-0.22291339684200
13.900000000000	-0.22004474377341
14.000000000000	-0.21724538728929
14.100000000000	-0.21451321557615
14.200000000000	-0.21184603788847
14.300000000000	-0.20924159184049
14.400000000000	-0.20669755068882
14.500000000000	-0.20421153063942
14.600000000000	-0.20178109821012
14.700000000000	-0.19940377767670
14.800000000000	-0.19707705862879
14.900000000000	-0.19479840365940
15.000000000000	-0.19256525621034
15.100000000000	-0.19037504859413
15.200000000000	-0.18822521021146
15.300000000000	-0.18611317598221
15.400000000000	-0.18403639500690
15.500000000000	-0.18199233947443
15.600000000000	-0.17997851383122
15.700000000000	-0.17799246422617
15.800000000000	-0.17603178824532
15.900000000000	-0.17409414494933
16.000000000000	-0.17217726522689
16.100000000000	-0.17027896247630
16.200000000000	-0.16839714362759
16.300000000000	-0.16652982051694
16.400000000000	-0.16467512162511
16.500000000000	-0.16283130419131
16.600000000000	-0.16099676671352
16.700000000000	-0.15917006184655
16.800000000000	-0.15734990970813
16.900000000000	-0.15553521160385
17.000000000000	-0.15372506418091
17.100000000000	-0.15191877402037
17.200000000000	-0.15011587267753
17.300000000000	-0.14831613217897
17.400000000000	-0.14651958098476
17.500000000000	-0.14472652042328
17.600000000000	-0.14293754160544
17.700000000000	-0.14115354282405
17.800000000000	-0.13937574744304
17.900000000000	-0.13760572227989
18.000000000000	-0.13584539648319
18.100000000000	-0.13409708090557
18.200000000000	-0.13236348797015
18.300000000000	-0.13064775202679
18.400000000000	-0.12895345019165
18.500000000000	-0.12728462366099
18.600000000000	-0.12564579948696
18.700000000000	-0.12404201279983
18.800000000000	-0.12247882945709
18.900000000000	-0.12096236909581
19.000000000000	-0.11949932856000
19.100000000000	-0.11809700566947
19.200000000000	-0.11676332329135
19.300000000000	-0.11550685366918
19.400000000000	-0.11433684295797
19.500000000000	-0.11326323590663
19.600000000000	-0.11229670062116
19.700000000000	-0.11144865333416
19.800000000000	-0.11073128309707
19.900000000000	-0.11015757630228
20.000000000000	-0.10974134093221
#Parameters = {ct=0.035; endl=1.5; gt=1; p=15; phi=0; pl=1.5; pw=1; s=1.57; st=1.57; th=0.5; theta=0; vt=5}
#"Frequency / GHz"	"SZmax(1),Zmax(1) (3) [Magnitude]"
#----------------------------------------------------
2.0000000000000	-0.0086980817977404
2.1000000000000	-0.0075153169682103
2.2000000000000	-0.0068916612405505
2.3000000000000	-0.0068071811556456
2.4000000000000	-0.0072432906313377
2.5000000000000	-0.0081827750701708
2.6000000000000	-0.0096098083476818
2.7000000000000	-0.011509962017098
2.8000000000000	-0.013870205930831
2.9000000000000	-0.016678899331726
3.0000000000000	-0.019925771308688
3.1000000000000	-0.023601889346040
3.2000000000000	-0.027699614527791
3.3000000000000	-0.032212541792758
3.4000000000000	-0.037135423482684
3.5000000000000	-0.042464074293458
3.6000000000000	-0.048195255642115
3.7000000000000	-0.054326537416297
3.8000000000000	-0.060856135096954
3.9000000000000	-0.067782720362408
4.0000000000000	-0.075105203517443
4.1000000000000	-0.082822486473113
4.2000000000000	-0.090933185559668
4.3000000000000	-0.099435324215103
4.4000000000000	-0.10832599657988
4.5000000000000	-0.11760100426268
4.6000000000000	-0.12725447003001
4.7000000000000	-0.13727843390619
4.8000000000000	-0.14766243911901
4.9000000000000	-0.15839311743556
5.0000000000000	-0.16945378561324
5.1000000000000	-0.18082406682148
5.2000000000000	-0.19247955281305
5.3000000000000	-0.20439152415139
5.4000000000000	-0.21652674672096
5.5000000000000	-0.22884736284293
5.6000000000000	-0.24131089438083
5.7000000000000	-0.25387037308365
5.8000000000000	-0.26647460997472
5.9000000000000	-0.27906861085128
6.0000000000000	-0.29159413902526
6.1000000000000	-0.30399041956240
6.2000000000000	-0.31619497184710
6.3000000000000	-0.32814454981455
6.4000000000000	-0.33977616222699
6.5000000000000	-0.35102813952740
6.6000000000000	-0.36184120964011
6.7000000000000	-0.37215954304797
6.8000000000000	-0.38193172783538
6.9000000000000	-0.39111163820324
7.0000000000000	-0.39965916506496
7.1000000000000	-0.40754078433373
7.2000000000000	-0.41472994684842
7.3000000000000	-0.42120728288810
7.4000000000000	-0.42696062319162
7.5000000000000	-0.43198484667295
7.6000000000000	-0.43628157206096
7.7000000000000	-0.43985871610908
7.8000000000000	-0.44272994461042
7.9000000000000	-0.44491404419110
8.0000000000000	-0.44643424286858
8.1000000000000	-0.44731750590040
8.2000000000000	-0.44759383083611
8.3000000000000	-0.44729556227760
8.4000000000000	-0.44645674299803
8.5000000000000	-0.44511251408271
8.6000000000000	-0.44329857289323
8.7000000000000	-0.44105069411441
8.8000000000000	-0.43840431605170
8.9000000000000	-0.43539419177423
9.0000000000000	-0.43205410266698
9.1000000000000	-0.42841663044566
9.2000000000000	-0.42451298265492
9.3000000000000	-0.42037286605196
9.4000000000000	-0.41602440200441
9.5000000000000	-0.41149407803166
9.6000000000000	-0.40680672982705
9.7000000000000	-0.40198554845253
9.8000000000000	-0.39705210784858
9.9000000000000	-0.39202640830581
10.000000000000	-0.38692693206960
10.100000000000	-0.38177070776811
10.200000000000	-0.37657338085148
10.300000000000	-0.37134928769154
10.400000000000	-0.36611153141149
10.500000000000	-0.36087205788949
10.600000000000	-0.35564173070810
10.700000000000	-0.35043040410502
10.800000000000	-0.34524699322136
10.900000000000	-0.34009954114613
11.000000000000	-0.33499528242264
11.100000000000	-0.32994070281916
11.200000000000	-0.32494159527591
11.300000000000	-0.32000311202655
11.400000000000	-0.31512981295984
11.500000000000	-0.31032571033713
11.600000000000	-0.30559431001860
11.700000000000	-0.30093864937675
11.800000000000	-0.29636133209235
11.900000000000	-0.29186456003756
12.000000000000	-0.28745016245469
12.100000000000	-0.28311962263850
12.200000000000	-0.27887410232578
12.300000000000	-0.27471446398990
12.400000000000	-0.27064129122932
12.500000000000	-0.26665490743006
12.600000000000	-0.26275539287177
12.700000000000	-0.25894260043669
12.800000000000	-0.25521617007002
12.900000000000	-0.25157554212986
13.000000000000	-0.24801996975465
13.100000000000	-0.24454853036607
13.200000000000	-0.24116013641608
13.300000000000	-0.23785354547794
13.400000000000	-0.23462736977266
13.500000000000	-0.23148008521450
13.600000000000	-0.22841004005205
13.700000000000	-0.22541546317475
13.800000000000	-0.22249447214830
13.900000000000	-0.21964508103733
14.000000000000	-0.21686520806781
14.100000000000	-0.21415268317775
14.200000000000	-0.21150525549990
14.300000000000	-0.20892060081660
14.400000000000	-0.20639632902340
14.500000000000	-0.20392999163492
14.600000000000	-0.20151908936350
14.700000000000	-0.19916107979896
14.800000000000	-0.19685338521521
14.900000000000	-0.19459340052775
15.000000000000	-0.19237850142407
15.100000000000	-0.19020605268781
15.200000000000	-0.18807341673560
15.300000000000	-0.18597796238494
15.400000000000	-0.18391707386998
15.500000000000	-0.18188816012151
15.600000000000	-0.17988866432635
15.700000000000	-0.17791607378117
15.800000000000	-0.17596793005467
15.900000000000	-0.17404183947212
16.000000000000	-0.17213548393548
16.100000000000	-0.17024663209215
16.200000000000	-0.16837315086525
16.300000000000	-0.16651301735790
16.400000000000	-0.16466433114377
16.500000000000	-0.16282532695622
16.600000000000	-0.16099438778800
16.700000000000	-0.15917005841308
16.800000000000	-0.15735105934260
16.900000000000	-0.15553630122590
17.000000000000	-0.15372489970796
17.100000000000	-0.15191619075397
17.200000000000	-0.15010974645127
17.300000000000	-0.14830539129854
17.400000000000	-0.14650321899165
17.500000000000	-0.14470360971442
17.600000000000	-0.14290724794235
17.700000000000	-0.14111514076571
17.800000000000	-0.13932863673776
17.900000000000	-0.13754944525225
18.000000000000	-0.13577965645268
18.100000000000	-0.13402176167445
18.200000000000	-0.13227867441832
18.300000000000	-0.13055375185196
18.400000000000	-0.12885081683312
18.500000000000	-0.12717418044539
18.600000000000	-0.12552866503400
18.700000000000	-0.12391962772548
18.800000000000	-0.12235298441069
18.900000000000	-0.12083523416642
19.000000000000	-0.11937348408550
19.100000000000	-0.11797547447987
19.200000000000	-0.11664960441504
19.300000000000	-0.11540495752762
19.400000000000	-0.11425132807049
19.500000000000	-0.11319924712235
19.600000000000	-0.11226000888980
19.700000000000	-0.11144569702139
19.800000000000	-0.11076921084278
19.900000000000	-0.11024429141245
20.000000000000	-0.10988554728577
#Parameters = {ct=0.035; endl=1.5; gt=1; p=15; phi=0; pl=2; pw=1; s=1.57; st=1.57; th=0.5; theta=0; vt=5}
#"Frequency / GHz"	"SZmax(1),Zmax(1) (4) [Magnitude]"
#----------------------------------------------------
2.0000000000000	-0.0087683995624534
2.1000000000000	-0.0070511057325564
2.2000000000000	-0.0059830577766903
2.3000000000000	-0.0055378211920161
2.4000000000000	-0.0056904829273290
2.5000000000000	-0.0064176850793218
2.6000000000000	-0.0076976502557069
2.7000000000000	-0.0095101980258815
2.8000000000000	-0.011836751742155
2.9000000000000	-0.014660334862766
3.0000000000000	-0.017965555743006
3.1000000000000	-0.021738579687451
3.2000000000000	-0.025967086877632
3.3000000000000	-0.030640214612415
3.4000000000000	-0.035748482131303
3.5000000000000	-0.041283696144058
3.6000000000000	-0.047238835077721
